Constituents (Atomic Number : Fraction by Weight)

 Z=17	: 1.000000

Edge 	Photon Energy 	Scattering 	Photoelectric Absorption 	Pair
Production 	Total Attenuation
Coherent 	Incoherent 	In Nuclear Field 	In Electron Field 	With Coherent
Scattering 	Without Coherent Scattering
MeV	cm2/g	cm2/g	cm2/g	cm2/g	cm2/g	cm2/g	cm2/g
BEGIN:
       1.000E-03 3.03E+00 8.56E-03 2.83E+03 0.00E+00 0.00E+00 2.83E+03 2.83E+03
       1.098E-03 2.99E+00 1.01E-02 2.21E+03 0.00E+00 0.00E+00 2.22E+03 2.21E+03
       1.205E-03 2.94E+00 1.18E-02 1.73E+03 0.00E+00 0.00E+00 1.73E+03 1.73E+03
       1.323E-03 2.88E+00 1.38E-02 1.35E+03 0.00E+00 0.00E+00 1.36E+03 1.35E+03
       1.453E-03 2.82E+00 1.61E-02 1.06E+03 0.00E+00 0.00E+00 1.06E+03 1.06E+03
       1.595E-03 2.75E+00 1.86E-02 8.26E+02 0.00E+00 0.00E+00 8.29E+02 8.26E+02
       1.751E-03 2.67E+00 2.14E-02 6.43E+02 0.00E+00 0.00E+00 6.46E+02 6.43E+02
       1.922E-03 2.57E+00 2.45E-02 5.00E+02 0.00E+00 0.00E+00 5.03E+02 5.00E+02
       2.110E-03 2.47E+00 2.78E-02 3.88E+02 0.00E+00 0.00E+00 3.91E+02 3.88E+02
       2.317E-03 2.36E+00 3.14E-02 3.01E+02 0.00E+00 0.00E+00 3.03E+02 3.01E+02
       2.543E-03 2.25E+00 3.52E-02 2.33E+02 0.00E+00 0.00E+00 2.35E+02 2.33E+02
       2.792E-03 2.13E+00 3.93E-02 1.81E+02 0.00E+00 0.00E+00 1.83E+02 1.81E+02
       3.065E-03 2.01E+00 4.35E-02 1.41E+03 0.00E+00 0.00E+00 1.41E+03 1.41E+03
       3.365E-03 1.89E+00 4.78E-02 1.13E+03 0.00E+00 0.00E+00 1.13E+03 1.13E+03
       3.695E-03 1.76E+00 5.23E-02 8.77E+02 0.00E+00 0.00E+00 8.79E+02 8.77E+02
       4.056E-03 1.64E+00 5.69E-02 6.76E+02 0.00E+00 0.00E+00 6.77E+02 6.76E+02
       4.453E-03 1.53E+00 6.15E-02 5.27E+02 0.00E+00 0.00E+00 5.28E+02 5.27E+02
       4.889E-03 1.42E+00 6.60E-02 4.12E+02 0.00E+00 0.00E+00 4.14E+02 4.13E+02
       5.367E-03 1.31E+00 7.05E-02 3.22E+02 0.00E+00 0.00E+00 3.23E+02 3.22E+02
       5.892E-03 1.21E+00 7.50E-02 2.49E+02 0.00E+00 0.00E+00 2.51E+02 2.49E+02
       6.469E-03 1.12E+00 7.94E-02 1.93E+02 0.00E+00 0.00E+00 1.94E+02 1.93E+02
       7.101E-03 1.03E+00 8.37E-02 1.49E+02 0.00E+00 0.00E+00 1.50E+02 1.49E+02
       7.796E-03 9.50E-01 8.81E-02 1.15E+02 0.00E+00 0.00E+00 1.16E+02 1.15E+02
       8.559E-03 8.70E-01 9.26E-02 8.80E+01 0.00E+00 0.00E+00 8.89E+01 8.81E+01
       9.397E-03 7.92E-01 9.70E-02 6.74E+01 0.00E+00 0.00E+00 6.83E+01 6.75E+01
       1.032E-02 7.17E-01 1.01E-01 5.16E+01 0.00E+00 0.00E+00 5.24E+01 5.17E+01
       1.132E-02 6.44E-01 1.06E-01 3.94E+01 0.00E+00 0.00E+00 4.01E+01 3.95E+01
       1.243E-02 5.75E-01 1.10E-01 3.00E+01 0.00E+00 0.00E+00 3.07E+01 3.01E+01
       1.365E-02 5.10E-01 1.15E-01 2.28E+01 0.00E+00 0.00E+00 2.34E+01 2.29E+01
       1.499E-02 4.49E-01 1.19E-01 1.73E+01 0.00E+00 0.00E+00 1.79E+01 1.74E+01
       1.645E-02 3.94E-01 1.23E-01 1.31E+01 0.00E+00 0.00E+00 1.36E+01 1.33E+01
       1.806E-02 3.44E-01 1.27E-01 9.93E+00 0.00E+00 0.00E+00 1.04E+01 1.01E+01
       1.983E-02 2.99E-01 1.30E-01 7.51E+00 0.00E+00 0.00E+00 7.94E+00 7.64E+00
       2.177E-02 2.60E-01 1.33E-01 5.66E+00 0.00E+00 0.00E+00 6.06E+00 5.80E+00
       2.390E-02 2.25E-01 1.36E-01 4.27E+00 0.00E+00 0.00E+00 4.63E+00 4.40E+00
       2.624E-02 1.95E-01 1.38E-01 3.21E+00 0.00E+00 0.00E+00 3.54E+00 3.35E+00
       2.880E-02 1.69E-01 1.40E-01 2.41E+00 0.00E+00 0.00E+00 2.72E+00 2.55E+00
       3.162E-02 1.46E-01 1.42E-01 1.81E+00 0.00E+00 0.00E+00 2.10E+00 1.95E+00
       3.472E-02 1.26E-01 1.43E-01 1.35E+00 0.00E+00 0.00E+00 1.62E+00 1.50E+00
       3.811E-02 1.08E-01 1.44E-01 1.01E+00 0.00E+00 0.00E+00 1.27E+00 1.16E+00
       4.184E-02 9.30E-02 1.45E-01 7.58E-01 0.00E+00 0.00E+00 9.96E-01 9.03E-01
       4.594E-02 7.97E-02 1.45E-01 5.66E-01 0.00E+00 0.00E+00 7.91E-01 7.11E-01
       5.043E-02 6.81E-02 1.45E-01 4.22E-01 0.00E+00 0.00E+00 6.36E-01 5.68E-01
       5.537E-02 5.81E-02 1.45E-01 3.15E-01 0.00E+00 0.00E+00 5.18E-01 4.60E-01
       6.078E-02 4.94E-02 1.45E-01 2.34E-01 0.00E+00 0.00E+00 4.28E-01 3.79E-01
       6.673E-02 4.19E-02 1.44E-01 1.75E-01 0.00E+00 0.00E+00 3.60E-01 3.18E-01
       7.326E-02 3.54E-02 1.43E-01 1.30E-01 0.00E+00 0.00E+00 3.08E-01 2.72E-01
       8.043E-02 2.99E-02 1.41E-01 9.66E-02 0.00E+00 0.00E+00 2.68E-01 2.38E-01
       8.830E-02 2.52E-02 1.39E-01 7.18E-02 0.00E+00 0.00E+00 2.36E-01 2.11E-01
       9.694E-02 2.12E-02 1.37E-01 5.34E-02 0.00E+00 0.00E+00 2.12E-01 1.91E-01
       1.064E-01 1.79E-02 1.35E-01 3.97E-02 0.00E+00 0.00E+00 1.93E-01 1.75E-01
       1.168E-01 1.50E-02 1.33E-01 2.95E-02 0.00E+00 0.00E+00 1.77E-01 1.62E-01
       1.283E-01 1.26E-02 1.30E-01 2.19E-02 0.00E+00 0.00E+00 1.65E-01 1.52E-01
       1.408E-01 1.05E-02 1.27E-01 1.63E-02 0.00E+00 0.00E+00 1.54E-01 1.44E-01
       1.546E-01 8.82E-03 1.24E-01 1.21E-02 0.00E+00 0.00E+00 1.45E-01 1.37E-01
       1.697E-01 7.38E-03 1.21E-01 9.05E-03 0.00E+00 0.00E+00 1.38E-01 1.30E-01
       1.863E-01 6.17E-03 1.18E-01 6.76E-03 0.00E+00 0.00E+00 1.31E-01 1.25E-01
       2.046E-01 5.15E-03 1.15E-01 5.05E-03 0.00E+00 0.00E+00 1.25E-01 1.20E-01
       2.246E-01 4.30E-03 1.12E-01 3.79E-03 0.00E+00 0.00E+00 1.20E-01 1.16E-01
       2.465E-01 3.58E-03 1.08E-01 2.84E-03 0.00E+00 0.00E+00 1.15E-01 1.11E-01
       2.707E-01 2.98E-03 1.05E-01 2.14E-03 0.00E+00 0.00E+00 1.10E-01 1.07E-01
       2.971E-01 2.48E-03 1.02E-01 1.62E-03 0.00E+00 0.00E+00 1.06E-01 1.03E-01
       3.262E-01 2.07E-03 9.83E-02 1.23E-03 0.00E+00 0.00E+00 1.02E-01 9.96E-02
       3.581E-01 1.72E-03 9.50E-02 9.38E-04 0.00E+00 0.00E+00 9.76E-02 9.59E-02
       3.932E-01 1.43E-03 9.17E-02 7.19E-04 0.00E+00 0.00E+00 9.38E-02 9.24E-02
       4.317E-01 1.19E-03 8.84E-02 5.54E-04 0.00E+00 0.00E+00 9.01E-02 8.89E-02
       4.739E-01 9.87E-04 8.51E-02 4.30E-04 0.00E+00 0.00E+00 8.65E-02 8.55E-02
       5.203E-01 8.20E-04 8.19E-02 3.36E-04 0.00E+00 0.00E+00 8.31E-02 8.22E-02
       5.712E-01 6.81E-04 7.87E-02 2.64E-04 0.00E+00 0.00E+00 7.97E-02 7.90E-02
       6.270E-01 5.66E-04 7.56E-02 2.09E-04 0.00E+00 0.00E+00 7.64E-02 7.58E-02
       6.884E-01 4.70E-04 7.26E-02 1.66E-04 0.00E+00 0.00E+00 7.32E-02 7.27E-02
       7.558E-01 3.90E-04 6.96E-02 1.34E-04 0.00E+00 0.00E+00 7.01E-02 6.97E-02
       8.297E-01 3.24E-04 6.67E-02 1.10E-04 0.00E+00 0.00E+00 6.71E-02 6.68E-02
       9.109E-01 2.69E-04 6.38E-02 9.11E-05 0.00E+00 0.00E+00 6.41E-02 6.39E-02
       1.000E+00 2.23E-04 6.10E-02 7.36E-05 0.00E+00 0.00E+00 6.13E-02 6.11E-02












