Constituents (Atomic Number : Fraction by Weight)

 Z=9	: 1.000000

Edge 	Photon Energy 	Scattering 	Photoelectric Absorption 	Pair
Production 	Total Attenuation
Coherent 	Incoherent 	In Nuclear Field 	In Electron Field 	With Coherent
Scattering 	Without Coherent Scattering
MeV	cm2/g	cm2/g	cm2/g	cm2/g	cm2/g	cm2/g	cm2/g
BEGIN:
       1.000E-03 1.62E+00 6.43E-03 5.65E+03 0.00E+00 0.00E+00 5.65E+03 5.65E+03
       1.098E-03 1.60E+00 7.65E-03 4.45E+03 0.00E+00 0.00E+00 4.45E+03 4.45E+03
       1.205E-03 1.58E+00 9.10E-03 3.50E+03 0.00E+00 0.00E+00 3.50E+03 3.50E+03
       1.323E-03 1.56E+00 1.08E-02 2.75E+03 0.00E+00 0.00E+00 2.75E+03 2.75E+03
       1.453E-03 1.53E+00 1.28E-02 2.15E+03 0.00E+00 0.00E+00 2.15E+03 2.15E+03
       1.595E-03 1.50E+00 1.51E-02 1.68E+03 0.00E+00 0.00E+00 1.68E+03 1.68E+03
       1.751E-03 1.46E+00 1.77E-02 1.30E+03 0.00E+00 0.00E+00 1.30E+03 1.30E+03
       1.922E-03 1.42E+00 2.07E-02 1.01E+03 0.00E+00 0.00E+00 1.01E+03 1.01E+03
       2.110E-03 1.38E+00 2.42E-02 7.78E+02 0.00E+00 0.00E+00 7.80E+02 7.78E+02
       2.317E-03 1.32E+00 2.80E-02 5.99E+02 0.00E+00 0.00E+00 6.01E+02 5.99E+02
       2.543E-03 1.26E+00 3.23E-02 4.61E+02 0.00E+00 0.00E+00 4.62E+02 4.61E+02
       2.792E-03 1.20E+00 3.71E-02 3.53E+02 0.00E+00 0.00E+00 3.54E+02 3.53E+02
       3.065E-03 1.13E+00 4.22E-02 2.70E+02 0.00E+00 0.00E+00 2.71E+02 2.70E+02
       3.365E-03 1.06E+00 4.78E-02 2.06E+02 0.00E+00 0.00E+00 2.08E+02 2.06E+02
       3.695E-03 9.85E-01 5.37E-02 1.57E+02 0.00E+00 0.00E+00 1.58E+02 1.57E+02
       4.056E-03 9.08E-01 5.99E-02 1.20E+02 0.00E+00 0.00E+00 1.21E+02 1.20E+02
       4.453E-03 8.31E-01 6.64E-02 9.08E+01 0.00E+00 0.00E+00 9.17E+01 9.08E+01
       4.889E-03 7.55E-01 7.30E-02 6.88E+01 0.00E+00 0.00E+00 6.96E+01 6.89E+01
       5.367E-03 6.81E-01 7.97E-02 5.20E+01 0.00E+00 0.00E+00 5.28E+01 5.21E+01
       5.892E-03 6.11E-01 8.63E-02 3.93E+01 0.00E+00 0.00E+00 4.00E+01 3.94E+01
       6.469E-03 5.45E-01 9.27E-02 2.96E+01 0.00E+00 0.00E+00 3.03E+01 2.97E+01
       7.101E-03 4.84E-01 9.89E-02 2.23E+01 0.00E+00 0.00E+00 2.29E+01 2.24E+01
       7.796E-03 4.29E-01 1.05E-01 1.68E+01 0.00E+00 0.00E+00 1.73E+01 1.69E+01
       8.559E-03 3.78E-01 1.10E-01 1.26E+01 0.00E+00 0.00E+00 1.31E+01 1.27E+01
       9.397E-03 3.33E-01 1.15E-01 9.44E+00 0.00E+00 0.00E+00 9.89E+00 9.55E+00
       1.032E-02 2.93E-01 1.20E-01 7.07E+00 0.00E+00 0.00E+00 7.48E+00 7.19E+00
       1.132E-02 2.57E-01 1.24E-01 5.28E+00 0.00E+00 0.00E+00 5.66E+00 5.41E+00
       1.243E-02 2.26E-01 1.28E-01 3.94E+00 0.00E+00 0.00E+00 4.30E+00 4.07E+00
       1.365E-02 1.98E-01 1.32E-01 2.94E+00 0.00E+00 0.00E+00 3.27E+00 3.07E+00
       1.499E-02 1.74E-01 1.35E-01 2.19E+00 0.00E+00 0.00E+00 2.50E+00 2.33E+00
       1.645E-02 1.52E-01 1.38E-01 1.63E+00 0.00E+00 0.00E+00 1.92E+00 1.77E+00
       1.806E-02 1.33E-01 1.41E-01 1.21E+00 0.00E+00 0.00E+00 1.48E+00 1.35E+00
       1.983E-02 1.16E-01 1.43E-01 8.99E-01 0.00E+00 0.00E+00 1.16E+00 1.04E+00
       2.177E-02 1.01E-01 1.45E-01 6.67E-01 0.00E+00 0.00E+00 9.13E-01 8.12E-01
       2.390E-02 8.74E-02 1.47E-01 4.94E-01 0.00E+00 0.00E+00 7.29E-01 6.41E-01
       2.624E-02 7.56E-02 1.49E-01 3.66E-01 0.00E+00 0.00E+00 5.90E-01 5.15E-01
       2.880E-02 6.51E-02 1.50E-01 2.70E-01 0.00E+00 0.00E+00 4.86E-01 4.21E-01
       3.162E-02 5.58E-02 1.51E-01 2.00E-01 0.00E+00 0.00E+00 4.07E-01 3.51E-01
       3.472E-02 4.77E-02 1.52E-01 1.47E-01 0.00E+00 0.00E+00 3.47E-01 3.00E-01
       3.811E-02 4.07E-02 1.52E-01 1.09E-01 0.00E+00 0.00E+00 3.02E-01 2.61E-01
       4.184E-02 3.46E-02 1.52E-01 8.03E-02 0.00E+00 0.00E+00 2.67E-01 2.33E-01
       4.594E-02 2.94E-02 1.52E-01 5.92E-02 0.00E+00 0.00E+00 2.41E-01 2.11E-01
       5.043E-02 2.49E-02 1.51E-01 4.36E-02 0.00E+00 0.00E+00 2.20E-01 1.95E-01
       5.537E-02 2.10E-02 1.50E-01 3.21E-02 0.00E+00 0.00E+00 2.03E-01 1.82E-01
       6.078E-02 1.77E-02 1.49E-01 2.36E-02 0.00E+00 0.00E+00 1.90E-01 1.73E-01
       6.673E-02 1.50E-02 1.47E-01 1.74E-02 0.00E+00 0.00E+00 1.80E-01 1.65E-01
       7.326E-02 1.26E-02 1.46E-01 1.28E-02 0.00E+00 0.00E+00 1.71E-01 1.58E-01
       8.043E-02 1.06E-02 1.44E-01 9.40E-03 0.00E+00 0.00E+00 1.64E-01 1.53E-01
       8.830E-02 8.88E-03 1.41E-01 6.91E-03 0.00E+00 0.00E+00 1.57E-01 1.48E-01
       9.694E-02 7.44E-03 1.39E-01 5.09E-03 0.00E+00 0.00E+00 1.51E-01 1.44E-01
       1.064E-01 6.23E-03 1.36E-01 3.74E-03 0.00E+00 0.00E+00 1.46E-01 1.40E-01
       1.168E-01 5.21E-03 1.33E-01 2.76E-03 0.00E+00 0.00E+00 1.41E-01 1.36E-01
       1.283E-01 4.35E-03 1.31E-01 2.03E-03 0.00E+00 0.00E+00 1.37E-01 1.33E-01
       1.408E-01 3.63E-03 1.27E-01 1.50E-03 0.00E+00 0.00E+00 1.33E-01 1.29E-01
       1.546E-01 3.03E-03 1.24E-01 1.11E-03 0.00E+00 0.00E+00 1.28E-01 1.25E-01
       1.697E-01 2.52E-03 1.21E-01 8.19E-04 0.00E+00 0.00E+00 1.24E-01 1.22E-01
       1.863E-01 2.10E-03 1.18E-01 6.07E-04 0.00E+00 0.00E+00 1.21E-01 1.18E-01
       2.046E-01 1.75E-03 1.14E-01 4.51E-04 0.00E+00 0.00E+00 1.17E-01 1.15E-01
       2.246E-01 1.45E-03 1.11E-01 3.35E-04 0.00E+00 0.00E+00 1.13E-01 1.11E-01
       2.465E-01 1.21E-03 1.08E-01 2.51E-04 0.00E+00 0.00E+00 1.09E-01 1.08E-01
       2.707E-01 1.00E-03 1.04E-01 1.88E-04 0.00E+00 0.00E+00 1.05E-01 1.04E-01
       2.971E-01 8.35E-04 1.01E-01 1.41E-04 0.00E+00 0.00E+00 1.02E-01 1.01E-01
       3.262E-01 6.94E-04 9.75E-02 1.07E-04 0.00E+00 0.00E+00 9.83E-02 9.76E-02
       3.581E-01 5.76E-04 9.42E-02 8.11E-05 0.00E+00 0.00E+00 9.48E-02 9.42E-02
       3.932E-01 4.79E-04 9.08E-02 6.19E-05 0.00E+00 0.00E+00 9.14E-02 9.09E-02
       4.317E-01 3.97E-04 8.75E-02 4.75E-05 0.00E+00 0.00E+00 8.80E-02 8.76E-02
       4.739E-01 3.30E-04 8.43E-02 3.67E-05 0.00E+00 0.00E+00 8.46E-02 8.43E-02
       5.203E-01 2.74E-04 8.11E-02 2.86E-05 0.00E+00 0.00E+00 8.14E-02 8.11E-02
       5.712E-01 2.27E-04 7.79E-02 2.25E-05 0.00E+00 0.00E+00 7.82E-02 7.79E-02
       6.270E-01 1.89E-04 7.48E-02 1.77E-05 0.00E+00 0.00E+00 7.50E-02 7.48E-02
       6.884E-01 1.57E-04 7.18E-02 1.40E-05 0.00E+00 0.00E+00 7.20E-02 7.18E-02
       7.558E-01 1.30E-04 6.88E-02 1.12E-05 0.00E+00 0.00E+00 6.90E-02 6.88E-02
       8.297E-01 1.08E-04 6.59E-02 9.33E-06 0.00E+00 0.00E+00 6.60E-02 6.59E-02
       9.109E-01 8.95E-05 6.31E-02 7.83E-06 0.00E+00 0.00E+00 6.32E-02 6.31E-02
       1.000E+00 7.42E-05 6.03E-02 6.21E-06 0.00E+00 0.00E+00 6.04E-02 6.03E-02


