Constituents (Atomic Number : Fraction by Weight)

 Z=16	: 1.000000

Edge 	Photon Energy 	Scattering 	Photoelectric Absorption 	Pair
Production 	Total Attenuation
Coherent 	Incoherent 	In Nuclear Field 	In Electron Field 	With Coherent
Scattering 	Without Coherent Scattering
MeV	cm2/g	cm2/g	cm2/g	cm2/g	cm2/g	cm2/g	cm2/g
BEGIN:
       1.000E-03 2.95E+00 1.01E-02 2.43E+03 0.00E+00 0.00E+00 2.43E+03 2.43E+03
       1.098E-03 2.90E+00 1.18E-02 1.90E+03 0.00E+00 0.00E+00 1.90E+03 1.90E+03
       1.205E-03 2.84E+00 1.38E-02 1.48E+03 0.00E+00 0.00E+00 1.48E+03 1.48E+03
       1.323E-03 2.78E+00 1.61E-02 1.16E+03 0.00E+00 0.00E+00 1.16E+03 1.16E+03
       1.453E-03 2.72E+00 1.86E-02 9.05E+02 0.00E+00 0.00E+00 9.08E+02 9.05E+02
       1.595E-03 2.65E+00 2.14E-02 7.05E+02 0.00E+00 0.00E+00 7.07E+02 7.05E+02
       1.751E-03 2.56E+00 2.44E-02 5.48E+02 0.00E+00 0.00E+00 5.51E+02 5.48E+02
       1.922E-03 2.47E+00 2.77E-02 4.26E+02 0.00E+00 0.00E+00 4.29E+02 4.26E+02
       2.110E-03 2.37E+00 3.12E-02 3.31E+02 0.00E+00 0.00E+00 3.33E+02 3.31E+02
       2.317E-03 2.26E+00 3.50E-02 2.56E+02 0.00E+00 0.00E+00 2.59E+02 2.56E+02
       2.543E-03 2.15E+00 3.89E-02 1.94E+03 0.00E+00 0.00E+00 1.95E+03 1.94E+03
       2.792E-03 2.04E+00 4.31E-02 1.58E+03 0.00E+00 0.00E+00 1.58E+03 1.58E+03
       3.065E-03 1.92E+00 4.74E-02 1.27E+03 0.00E+00 0.00E+00 1.27E+03 1.27E+03
       3.365E-03 1.81E+00 5.18E-02 1.00E+03 0.00E+00 0.00E+00 1.00E+03 1.00E+03
       3.695E-03 1.69E+00 5.62E-02 7.83E+02 0.00E+00 0.00E+00 7.84E+02 7.83E+02
       4.056E-03 1.58E+00 6.07E-02 6.09E+02 0.00E+00 0.00E+00 6.11E+02 6.09E+02
       4.453E-03 1.48E+00 6.52E-02 4.74E+02 0.00E+00 0.00E+00 4.76E+02 4.74E+02
       4.889E-03 1.38E+00 6.96E-02 3.69E+02 0.00E+00 0.00E+00 3.71E+02 3.69E+02
       5.367E-03 1.28E+00 7.41E-02 2.86E+02 0.00E+00 0.00E+00 2.88E+02 2.86E+02
       5.892E-03 1.19E+00 7.86E-02 2.21E+02 0.00E+00 0.00E+00 2.22E+02 2.21E+02
       6.469E-03 1.10E+00 8.31E-02 1.71E+02 0.00E+00 0.00E+00 1.72E+02 1.71E+02
       7.101E-03 1.02E+00 8.77E-02 1.31E+02 0.00E+00 0.00E+00 1.32E+02 1.31E+02
       7.796E-03 9.33E-01 9.23E-02 1.01E+02 0.00E+00 0.00E+00 1.02E+02 1.01E+02
       8.559E-03 8.53E-01 9.70E-02 7.72E+01 0.00E+00 0.00E+00 7.82E+01 7.73E+01
       9.397E-03 7.74E-01 1.02E-01 5.90E+01 0.00E+00 0.00E+00 5.99E+01 5.91E+01
       1.032E-02 6.98E-01 1.07E-01 4.50E+01 0.00E+00 0.00E+00 4.58E+01 4.51E+01
       1.132E-02 6.24E-01 1.11E-01 3.43E+01 0.00E+00 0.00E+00 3.50E+01 3.44E+01
       1.243E-02 5.55E-01 1.16E-01 2.61E+01 0.00E+00 0.00E+00 2.67E+01 2.62E+01
       1.365E-02 4.90E-01 1.21E-01 1.98E+01 0.00E+00 0.00E+00 2.04E+01 1.99E+01
       1.499E-02 4.31E-01 1.25E-01 1.50E+01 0.00E+00 0.00E+00 1.55E+01 1.51E+01
       1.645E-02 3.77E-01 1.30E-01 1.13E+01 0.00E+00 0.00E+00 1.18E+01 1.15E+01
       1.806E-02 3.29E-01 1.33E-01 8.56E+00 0.00E+00 0.00E+00 9.02E+00 8.69E+00
       1.983E-02 2.86E-01 1.37E-01 6.46E+00 0.00E+00 0.00E+00 6.88E+00 6.59E+00
       2.177E-02 2.48E-01 1.40E-01 4.86E+00 0.00E+00 0.00E+00 5.25E+00 5.00E+00
       2.390E-02 2.15E-01 1.43E-01 3.65E+00 0.00E+00 0.00E+00 4.01E+00 3.80E+00
       2.624E-02 1.86E-01 1.45E-01 2.74E+00 0.00E+00 0.00E+00 3.07E+00 2.89E+00
       2.880E-02 1.61E-01 1.47E-01 2.06E+00 0.00E+00 0.00E+00 2.37E+00 2.20E+00
       3.162E-02 1.39E-01 1.49E-01 1.54E+00 0.00E+00 0.00E+00 1.83E+00 1.69E+00
       3.472E-02 1.20E-01 1.50E-01 1.15E+00 0.00E+00 0.00E+00 1.42E+00 1.30E+00
       3.811E-02 1.03E-01 1.51E-01 8.61E-01 0.00E+00 0.00E+00 1.12E+00 1.01E+00
       4.184E-02 8.86E-02 1.52E-01 6.43E-01 0.00E+00 0.00E+00 8.83E-01 7.95E-01
       4.594E-02 7.59E-02 1.52E-01 4.79E-01 0.00E+00 0.00E+00 7.07E-01 6.31E-01
       5.043E-02 6.48E-02 1.52E-01 3.57E-01 0.00E+00 0.00E+00 5.74E-01 5.09E-01
       5.537E-02 5.52E-02 1.52E-01 2.66E-01 0.00E+00 0.00E+00 4.73E-01 4.18E-01
       6.078E-02 4.69E-02 1.51E-01 1.98E-01 0.00E+00 0.00E+00 3.96E-01 3.49E-01
       6.673E-02 3.97E-02 1.50E-01 1.47E-01 0.00E+00 0.00E+00 3.37E-01 2.97E-01
       7.326E-02 3.36E-02 1.49E-01 1.09E-01 0.00E+00 0.00E+00 2.92E-01 2.58E-01
       8.043E-02 2.83E-02 1.47E-01 8.12E-02 0.00E+00 0.00E+00 2.57E-01 2.28E-01
       8.830E-02 2.39E-02 1.45E-01 6.03E-02 0.00E+00 0.00E+00 2.30E-01 2.06E-01
       9.694E-02 2.01E-02 1.43E-01 4.47E-02 0.00E+00 0.00E+00 2.08E-01 1.88E-01
       1.064E-01 1.69E-02 1.41E-01 3.32E-02 0.00E+00 0.00E+00 1.91E-01 1.74E-01
       1.168E-01 1.42E-02 1.38E-01 2.47E-02 0.00E+00 0.00E+00 1.77E-01 1.63E-01
       1.283E-01 1.19E-02 1.36E-01 1.83E-02 0.00E+00 0.00E+00 1.66E-01 1.54E-01
       1.408E-01 9.95E-03 1.33E-01 1.36E-02 0.00E+00 0.00E+00 1.56E-01 1.46E-01
       1.546E-01 8.33E-03 1.30E-01 1.01E-02 0.00E+00 0.00E+00 1.48E-01 1.40E-01
       1.697E-01 6.96E-03 1.26E-01 7.54E-03 0.00E+00 0.00E+00 1.41E-01 1.34E-01
       1.863E-01 5.82E-03 1.23E-01 5.63E-03 0.00E+00 0.00E+00 1.35E-01 1.29E-01
       2.046E-01 4.85E-03 1.20E-01 4.20E-03 0.00E+00 0.00E+00 1.29E-01 1.24E-01
       2.246E-01 4.05E-03 1.16E-01 3.15E-03 0.00E+00 0.00E+00 1.24E-01 1.19E-01
       2.465E-01 3.37E-03 1.13E-01 2.36E-03 0.00E+00 0.00E+00 1.19E-01 1.15E-01
       2.707E-01 2.81E-03 1.09E-01 1.78E-03 0.00E+00 0.00E+00 1.14E-01 1.11E-01
       2.971E-01 2.34E-03 1.06E-01 1.34E-03 0.00E+00 0.00E+00 1.10E-01 1.07E-01
       3.262E-01 1.95E-03 1.02E-01 1.02E-03 0.00E+00 0.00E+00 1.05E-01 1.03E-01
       3.581E-01 1.62E-03 9.89E-02 7.77E-04 0.00E+00 0.00E+00 1.01E-01 9.97E-02
       3.932E-01 1.35E-03 9.54E-02 5.95E-04 0.00E+00 0.00E+00 9.74E-02 9.60E-02
       4.317E-01 1.12E-03 9.20E-02 4.59E-04 0.00E+00 0.00E+00 9.36E-02 9.24E-02
       4.739E-01 9.29E-04 8.86E-02 3.55E-04 0.00E+00 0.00E+00 8.99E-02 8.90E-02
       5.203E-01 7.72E-04 8.53E-02 2.78E-04 0.00E+00 0.00E+00 8.63E-02 8.55E-02
       5.712E-01 6.41E-04 8.20E-02 2.19E-04 0.00E+00 0.00E+00 8.28E-02 8.22E-02
       6.270E-01 5.32E-04 7.87E-02 1.73E-04 0.00E+00 0.00E+00 7.94E-02 7.89E-02
       6.884E-01 4.42E-04 7.55E-02 1.37E-04 0.00E+00 0.00E+00 7.61E-02 7.57E-02
       7.558E-01 3.67E-04 7.24E-02 1.10E-04 0.00E+00 0.00E+00 7.29E-02 7.25E-02
       8.297E-01 3.04E-04 6.94E-02 9.08E-05 0.00E+00 0.00E+00 6.98E-02 6.95E-02
       9.109E-01 2.53E-04 6.64E-02 7.54E-05 0.00E+00 0.00E+00 6.67E-02 6.65E-02
       1.000E+00 2.10E-04 6.35E-02 6.08E-05 0.00E+00 0.00E+00 6.37E-02 6.35E-02


